time, Potential energy, Kinetic energy, Total energy Total charge Total Momentum
0.00000000000000000e+00 1.49673733602889687e+01 2.97536553001891571e+03 2.99033290337920471e+03 -1.98440170375952175e+03 1.48532784432264431e+00
3.12500000000000017e-03 1.49674101792722798e+01 2.97536549321220627e+03 2.99033290339147834e+03 -1.98440170375671710e+03 1.48532784432264497e+00
6.25000000000000035e-03 1.49670835306192398e+01 2.97536581986183501e+03 2.99033290339245423e+03 -1.98440170376166361e+03 1.48532784432264497e+00
9.37500000000000139e-03 1.49663934370120266e+01 2.97536650994849788e+03 2.99033290338550978e+03 -1.98440170376748893e+03 1.48532784432264520e+00
1.25000000000000007e-02 1.49653399976868204e+01 2.97536756337258521e+03 2.99033290337027211e+03 -1.98440170377286404e+03 1.48532784432264475e+00
1.56250000000000000e-02 1.49639233956021229e+01 2.97536897995383515e+03 2.99033290334943740e+03 -1.98440170380022846e+03 1.48532784432264497e+00
1.87499999999999993e-02 1.49621438909199735e+01 2.97537075943216814e+03 2.99033290332308798e+03 -1.98440170380347377e+03 1.48532784432264475e+00
2.18749999999999986e-02 1.49600018213573289e+01 2.97537290146938994e+03 2.99033290329074725e+03 -1.98440170380965810e+03 1.48532784432264520e+00
2.49999999999999979e-02 1.49574976010083773e+01 2.97537540565149129e+03 2.99033290325249982e+03 -1.98440170381306189e+03 1.48532784432264520e+00
2.81249999999999972e-02 1.49546317138271494e+01 2.97537827149135592e+03 2.99033290320518290e+03 -1.98440170381298640e+03 1.48532784432264475e+00
3.12499999999999965e-02 1.49514047233589160e+01 2.97538149843176234e+03 2.99033290315512113e+03 -1.98440170381575649e+03 1.48532784432264475e+00
3.43749999999999958e-02 1.49478172528154705e+01 2.97538508584866850e+03 2.99033290310148413e+03 -1.98440170380482823e+03 1.48532784432264497e+00
3.74999999999999986e-02 1.49438699876725227e+01 2.97538903305486110e+03 2.99033290304253342e+03 -1.98440170380600830e+03 1.48532784432264475e+00
4.06250000000000014e-02 1.49395636750477436e+01 2.97539333930407429e+03 2.99033290297912208e+03 -1.98440170379675101e+03 1.48532784432264431e+00
4.37500000000000042e-02 1.49348991171786860e+01 2.97539800379570261e+03 2.99033290291288131e+03 -1.98440170378230710e+03 1.48532784432264453e+00
4.68750000000000069e-02 1.49298771604841427e+01 2.97540302568025527e+03 2.99033290284073928e+03 -1.98440170377786148e+03 1.48532784432264497e+00
5.00000000000000097e-02 1.49244987011560593e+01 2.97540840406556299e+03 2.99033290276671914e+03 -1.98440170376933543e+03 1.48532784432264409e+00
5.31250000000000125e-02 1.49187646662911160e+01 2.97541413802372745e+03 2.99033290269001873e+03 -1.98440170375727803e+03 1.48532784432264431e+00
5.62500000000000153e-02 1.49126760169950519e+01 2.97542022659869144e+03 2.99033290261568663e+03 -1.98440170373762476e+03 1.48532784432264453e+00
5.93750000000000180e-02 1.49062337240120524e+01 2.97542666881421792e+03 2.99033290253822997e+03 -1.98440170373397632e+03 1.48532784432264475e+00
6.25000000000000139e-02 1.48994387782214570e+01 2.97543346368204084e+03 2.99033290246026218e+03 -1.98440170372829243e+03 1.48532784432264475e+00
6.56250000000000167e-02 1.48922921730779709e+01 2.97544061020996696e+03 2.99033290238304471e+03 -1.98440170372969328e+03 1.48532784432264453e+00
6.87500000000000194e-02 1.48847948967499573e+01 2.97544810740962930e+03 2.99033290230637931e+03 -1.98440170372931107e+03 1.48532784432264431e+00
7.18750000000000222e-02 1.48769479289651940e+01 2.97545595430369758e+03 2.99033290223266295e+03 -1.98440170372528087e+03 1.48532784432264386e+00
7.50000000000000250e-02 1.48687522284281215e+01 2.97546414993240660e+03 2.99033290216083469e+03 -1.98440170371946760e+03 1.48532784432264409e+00
7.81250000000000278e-02 1.48602087319047698e+01 2.97547269335932606e+03 2.99033290209123061e+03 -1.98440170370743863e+03 1.48532784432264342e+00
8.12500000000000305e-02 1.48513183448477601e+01 2.97548158367635961e+03 2.99033290202120725e+03 -1.98440170370960300e+03 1.48532784432264431e+00
8.43750000000000333e-02 1.48420819489896498e+01 2.97549082000804810e+03 2.99033290195703785e+03 -1.98440170371516069e+03 1.48532784432264386e+00
8.75000000000000361e-02 1.48325003819304584e+01 2.97550040151522262e+03 2.99033290189715308e+03 -1.98440170374059517e+03 1.48532784432264431e+00
9.06250000000000389e-02 1.48225744425108701e+01 2.97551032739808443e+03 2.99033290184059524e+03 -1.98440170375390744e+03 1.48532784432264342e+00
9.37500000000000416e-02 1.48123048901809771e+01 2.97552059689880480e+03 2.99033290178898596e+03 -1.98440170375315688e+03 1.48532784432264431e+00
9.68750000000000444e-02 1.48016924408751134e+01 2.97553120930363275e+03 2.99033290174450804e+03 -1.98440170374353193e+03 1.48532784432264342e+00
1.00000000000000047e-01 1.47907377572581424e+01 2.97554216394449759e+03 2.99033290170175587e+03 -1.98440170373138517e+03 1.48532784432264386e+00
1.03125000000000050e-01 1.47794414629941286e+01 2.97555346020003617e+03 2.99033290166303050e+03 -1.98440170372507828e+03 1.48532784432264364e+00
1.06250000000000053e-01 1.47678041329532803e+01 2.97556509749591805e+03 2.99033290162887124e+03 -1.98440170370530313e+03 1.48532784432264364e+00
1.09375000000000056e-01 1.47558262926732358e+01 2.97557707530435118e+03 2.99033290159702437e+03 -1.98440170369864086e+03 1.48532784432264342e+00
1.12500000000000058e-01 1.47435084264012488e+01 2.97558939314262307e+03 2.99033290156902422e+03 -1.98440170370076430e+03 1.48532784432264364e+00
1.15625000000000061e-01 1.47308509717787217e+01 2.97560205057057465e+03 2.99033290154235328e+03 -1.98440170369306747e+03 1.48532784432264386e+00
1.18750000000000064e-01 1.47178543316287502e+01 2.97561504718693686e+03 2.99033290151856545e+03 -1.98440170368087206e+03 1.48532784432264342e+00
1.21875000000000067e-01 1.47045188741724449e+01 2.97562838262450987e+03 2.99033290149868253e+03 -1.98440170366513894e+03 1.48532784432264364e+00
1.25000000000000056e-01 1.46908449375588823e+01 2.97564205654420994e+03 2.99033290148176866e+03 -1.98440170365722952e+03 1.48532784432264364e+00
1.28125000000000044e-01 1.46768328391889895e+01 2.97565606862809000e+03 2.99033290146727904e+03 -1.98440170364310097e+03 1.48532784432264342e+00
1.31250000000000033e-01 1.46624828837219958e+01 2.97567041857145296e+03 2.99033290145517503e+03 -1.98440170363650122e+03 1.48532784432264342e+00
1.34375000000000022e-01 1.46477953688143163e+01 2.97568510607426151e+03 2.99033290144307603e+03 -1.98440170364473079e+03 1.48532784432264431e+00
1.37500000000000011e-01 1.46327706025042961e+01 2.97570013083206231e+03 2.99033290143456679e+03 -1.98440170366486132e+03 1.48532784432264364e+00
1.40625000000000000e-01 1.46174088969824059e+01 2.97571549252665591e+03 2.99033290142363830e+03 -1.98440170368652889e+03 1.48532784432264342e+00
1.43749999999999989e-01 1.46017105960467841e+01 2.97573119081679397e+03 2.99033290141284078e+03 -1.98440170369391808e+03 1.48532784432264342e+00
1.46874999999999978e-01 1.45856760690015577e+01 2.97574722532917622e+03 2.99033290139817791e+03 -1.98440170369909856e+03 1.48532784432264342e+00
1.49999999999999967e-01 1.45693057281491232e+01 2.97576359565000439e+03 2.99033290137815357e+03 -1.98440170370375245e+03 1.48532784432264298e+00
1.53124999999999956e-01 1.45526000357358978e+01 2.97578030131743435e+03 2.99033290135317020e+03 -1.98440170370212400e+03 1.48532784432264386e+00
1.56249999999999944e-01 1.45355595095915113e+01 2.97579734181519689e+03 2.99033290132478851e+03 -1.98440170370806254e+03 1.48532784432264342e+00
1.59374999999999933e-01 1.45181847194124263e+01 2.97581471656767189e+03 2.99033290128708450e+03 -1.98440170371095996e+03 1.48532784432264386e+00
1.62499999999999922e-01 1.45004763069859433e+01 2.97583242493663147e+03 2.99033290124361747e+03 -1.98440170372098532e+03 1.48532784432264386e+00
1.65624999999999911e-01 1.44824349720222596e+01 2.97585046621986430e+03 2.99033290119188678e+03 -1.98440170373305205e+03 1.48532784432264342e+00
1.68749999999999900e-01 1.44640614833945023e+01 2.97586883965175548e+03 2.99033290113514977e+03 -1.98440170373969431e+03 1.48532784432264342e+00
1.71874999999999889e-01 1.44453566693112165e+01 2.97588754440583944e+03 2.99033290107515086e+03 -1.98440170374740455e+03 1.48532784432264342e+00
1.74999999999999878e-01 1.44263214087786249e+01 2.97590657959917189e+03 2.99033290100795057e+03 -1.98440170375222897e+03 1.48532784432264342e+00
1.78124999999999867e-01 1.44069566433100995e+01 2.97592594429831115e+03 2.99033290094162112e+03 -1.98440170375066396e+03 1.48532784432264342e+00
1.81249999999999856e-01 1.43872633458096431e+01 2.97594563752656359e+03 2.99033290087237310e+03 -1.98440170374172521e+03 1.48532784432264298e+00
1.84374999999999845e-01 1.43672425298748436e+01 2.97596565827202812e+03 2.99033290080190318e+03 -1.98440170374695663e+03 1.48532784432264342e+00
1.87499999999999833e-01 1.43468952296828540e+01 2.97598600549595812e+03 2.99033290072564114e+03 -1.98440170374747095e+03 1.48532784432264386e+00
1.90624999999999822e-01 1.43262225098167697e+01 2.97600667814095141e+03 2.99033290065076835e+03 -1.98440170374584500e+03 1.48532784432264342e+00
1.93749999999999811e-01 1.43052254404944836e+01 2.97602767513846629e+03 2.99033290057896056e+03 -1.98440170374269337e+03 1.48532784432264320e+00
1.96874999999999800e-01 1.42839050905040796e+01 2.97604899541527084e+03 2.99033290050577489e+03 -1.98440170372546345e+03 1.48532784432264275e+00
1.99999999999999789e-01 1.42622625375964809e+01 2.97607063789848962e+03 2.99033290043608622e+03 -1.98440170372662396e+03 1.48532784432264253e+00
2.03124999999999778e-01 1.42402988465475904e+01 2.97609260151903254e+03 2.99033290036557992e+03 -1.98440170374294166e+03 1.48532784432264320e+00
2.06249999999999767e-01 1.42180150833796599e+01 2.97611488521328874e+03 2.99033290029666841e+03 -1.98440170374362560e+03 1.48532784432264342e+00
2.09374999999999756e-01 1.41954123023004293e+01 2.97613748792307479e+03 2.99033290022537540e+03 -1.98440170374504260e+03 1.48532784432264253e+00
2.12499999999999745e-01 1.41724915623787648e+01 2.97616040859390614e+03 2.99033290015628472e+03 -1.98440170374886111e+03 1.48532784432264298e+00
2.15624999999999734e-01 1.41492539145314460e+01 2.97618364617172938e+03 2.99033290008626091e+03 -1.98440170376715764e+03 1.48532784432264342e+00
2.18749999999999722e-01 1.41257004163146362e+01 2.97620719959831058e+03 2.99033290001462501e+03 -1.98440170376979745e+03 1.48532784432264342e+00
2.21874999999999711e-01 1.41018321389012886e+01 2.97623106780551279e+03 2.99033289994441429e+03 -1.98440170376769470e+03 1.48532784432264275e+00
2.24999999999999700e-01 1.40776501683146780e+01 2.97625524970878269e+03 2.99033289987709759e+03 -1.98440170375557136e+03 1.48532784432264342e+00
2.28124999999999689e-01 1.40531556043976114e+01 2.97627974420017290e+03 2.99033289980457039e+03 -1.98440170373571254e+03 1.48532784432264364e+00
2.31249999999999678e-01 1.40283495866735990e+01 2.97630455014127801e+03 2.99033289972795183e+03 -1.98440170372970806e+03 1.48532784432264342e+00
2.34374999999999667e-01 1.40032332894106464e+01 2.97632966635649746e+03 2.99033289964590813e+03 -1.98440170372157968e+03 1.48532784432264342e+00
2.37499999999999656e-01 1.39778079272242444e+01 2.97635509162704511e+03 2.99033289955426926e+03 -1.98440170371454474e+03 1.48532784432264342e+00
2.40624999999999645e-01 1.39520747757745909e+01 2.97638082468611492e+03 2.99033289946188961e+03 -1.98440170371674822e+03 1.48532784432264386e+00
2.43749999999999634e-01 1.39260351493320726e+01 2.97640686421553164e+03 2.99033289936486381e+03 -1.98440170371897875e+03 1.48532784432264342e+00
2.46874999999999623e-01 1.38996904191875501e+01 2.97643320884418426e+03 2.99033289926337193e+03 -1.98440170370972669e+03 1.48532784432264386e+00
2.49999999999999611e-01 1.38730420083013328e+01 2.97645985714838753e+03 2.99033289915668865e+03 -1.98440170370334886e+03 1.48532784432264431e+00
2.53124999999999600e-01 1.38460913945282815e+01 2.97648680765424615e+03 2.99033289904877438e+03 -1.98440170368636268e+03 1.48532784432264431e+00
2.56249999999999589e-01 1.38188400957458022e+01 2.97651405884183623e+03 2.99033289893758183e+03 -1.98440170368427698e+03 1.48532784432264475e+00
2.59374999999999578e-01 1.37912896763640500e+01 2.97654160915092962e+03 2.99033289882729377e+03 -1.98440170368305394e+03 1.48532784432264409e+00
2.62499999999999567e-01 1.37634417260697433e+01 2.97656945698785103e+03 2.99033289871392071e+03 -1.98440170369675116e+03 1.48532784432264431e+00
2.65624999999999556e-01 1.37352978694163568e+01 2.97659760073289544e+03 2.99033289860231162e+03 -1.98440170369678594e+03 1.48532784432264386e+00
2.68749999999999545e-01 1.37068597370355540e+01 2.97662603874767683e+03 2.99033289848471259e+03 -1.98440170371034264e+03 1.48532784432264475e+00
2.71874999999999534e-01 1.36781289846166807e+01 2.97665476938174925e+03 2.99033289836636595e+03 -1.98440170371944464e+03 1.48532784432264386e+00
2.74999999999999523e-01 1.36491072699597957e+01 2.97668379097784145e+03 2.99033289824780104e+03 -1.98440170372996818e+03 1.48532784432264431e+00
2.78124999999999512e-01 1.36197962560100851e+01 2.97671310187513018e+03 2.99033289813114015e+03 -1.98440170373060505e+03 1.48532784432264386e+00
2.81249999999999500e-01 1.35901976048400286e+01 2.97674270041015461e+03 2.99033289801499450e+03 -1.98440170374042577e+03 1.48532784432264431e+00
2.84374999999999489e-01 1.35603129874391897e+01 2.97677258491509110e+03 2.99033289790253048e+03 -1.98440170374929176e+03 1.48532784432264386e+00
2.87499999999999478e-01 1.35301440777152688e+01 2.97680275371337075e+03 2.99033289779108600e+03 -1.98440170376128981e+03 1.48532784432264342e+00
2.90624999999999467e-01 1.34996925664884273e+01 2.97683320511282818e+03 2.99033289767931683e+03 -1.98440170377418917e+03 1.48532784432264453e+00
2.93749999999999456e-01 1.34689601688928295e+01 2.97686393739681807e+03 2.99033289756571094e+03 -1.98440170378159064e+03 1.48532784432264409e+00
2.96874999999999445e-01 1.34379486319732475e+01 2.97689494881391647e+03 2.99033289744588956e+03 -1.98440170378851462e+03 1.48532784432264431e+00
2.99999999999999434e-01 1.34066597541730363e+01 2.97692623756704006e+03 2.99033289732121330e+03 -1.98440170377239269e+03 1.48532784432264497e+00
3.03124999999999423e-01 1.33750953847064995e+01 2.97695780180293423e+03 2.99033289718764081e+03 -1.98440170375396087e+03 1.48532784432264475e+00
3.06249999999999412e-01 1.33432574472929009e+01 2.97698963960302672e+03 2.99033289705031984e+03 -1.98440170374695026e+03 1.48532784432264520e+00
3.09374999999999400e-01 1.33111479281638143e+01 2.97702174897666828e+03 2.99033289690483207e+03 -1.98440170373694764e+03 1.48532784432264431e+00
3.12499999999999389e-01 1.32787688965320889e+01 2.97705412785766384e+03 2.99033289675419610e+03 -1.98440170372952934e+03 1.48532784432264475e+00
3.15624999999999378e-01 1.32461224946068121e+01 2.97708677410483460e+03 2.99033289659944148e+03 -1.98440170370881378e+03 1.48532784432264431e+00
3.18749999999999367e-01 1.32132109310086658e+01 2.97711968550706933e+03 2.99033289643807802e+03 -1.98440170369425573e+03 1.48532784432264497e+00
3.21874999999999356e-01 1.31800364801349481e+01 2.97715285979300324e+03 2.99033289627313798e+03 -1.98440170366388293e+03 1.48532784432264409e+00
3.24999999999999345e-01 1.31466014603980117e+01 2.97718629464507831e+03 2.99033289610547627e+03 -1.98440170365114136e+03 1.48532784432264475e+00
3.28124999999999334e-01 1.31129082182536454e+01 2.97721998771733070e+03 2.99033289593558447e+03 -1.98440170364854521e+03 1.48532784432264520e+00
3.31249999999999323e-01 1.30789591129417104e+01 2.97725393665592492e+03 2.99033289576886682e+03 -1.98440170366192319e+03 1.48532784432264453e+00
3.34374999999999312e-01 1.30447564830708487e+01 2.97728813912110763e+03 2.99033289560417870e+03 -1.98440170366273765e+03 1.48532784432264475e+00
3.37499999999999301e-01 1.30103026354796594e+01 2.97732259280908283e+03 2.99033289544456238e+03 -1.98440170366726898e+03 1.48532784432264431e+00
3.40624999999999289e-01 1.29755998216183492e+01 2.97735729547226947e+03 2.99033289529388776e+03 -1.98440170366723623e+03 1.48532784432264453e+00
3.43749999999999278e-01 1.29406502154630427e+01 2.97739224493641086e+03 2.99033289515187380e+03 -1.98440170366651864e+03 1.48532784432264431e+00
3.46874999999999267e-01 1.29054559057152805e+01 2.97742743911327170e+03 2.99033289501898707e+03 -1.98440170367648125e+03 1.48532784432264520e+00
3.49999999999999256e-01 1.28700188852535291e+01 2.97746287600797314e+03 2.99033289489322669e+03 -1.98440170369292218e+03 1.48532784432264475e+00
3.53124999999999245e-01 1.28343410526420421e+01 2.97749855372045158e+03 2.99033289477309381e+03 -1.98440170370373403e+03 1.48532784432264475e+00
3.56249999999999234e-01 1.27984242173282912e+01 2.97753447044101176e+03 2.99033289465834014e+03 -1.98440170371657973e+03 1.48532784432264475e+00
3.59374999999999223e-01 1.27622701071540483e+01 2.97757062444037638e+03 2.99033289454753049e+03 -1.98440170371395448e+03 1.48532784432264431e+00
3.62499999999999212e-01 1.27258803900269601e+01 2.97760701405513009e+03 2.99033289444515685e+03 -1.98440170370614442e+03 1.48532784432264520e+00
3.65624999999999201e-01 1.26892566717928474e+01 2.97764363766975612e+03 2.99033289434154904e+03 -1.98440170371511977e+03 1.48532784432264520e+00
3.68749999999999190e-01 1.26524005434504776e+01 2.97768049369675555e+03 2.99033289424020586e+03 -1.98440170372415787e+03 1.48532784432264497e+00
3.71874999999999178e-01 1.26153135808772934e+01 2.97771758055641658e+03 2.99033289413729381e+03 -1.98440170373316300e+03 1.48532784432264475e+00
3.74999999999999167e-01 1.25779973742440561e+01 2.97775489665774057e+03 2.99033289403198478e+03 -1.98440170373293995e+03 1.48532784432264475e+00
3.78124999999999156e-01 1.25404535419870289e+01 2.97779244038186425e+03 2.99033289392385132e+03 -1.98440170372475313e+03 1.48532784432264475e+00
3.81249999999999145e-01 1.25026837429118700e+01 2.97783021006904391e+03 2.99033289381195573e+03 -1.98440170371836302e+03 1.48532784432264475e+00
3.84374999999999134e-01 1.24646896864537009e+01 2.97786820400983015e+03 2.99033289369628392e+03 -1.98440170373112437e+03 1.48532784432264520e+00
3.87499999999999123e-01 1.24264731342676686e+01 2.97790642044066999e+03 2.99033289357493777e+03 -1.98440170372997773e+03 1.48532784432264497e+00
3.90624999999999112e-01 1.23880359073079518e+01 2.97794485754376137e+03 2.99033289345106914e+03 -1.98440170374094282e+03 1.48532784432264453e+00
3.93749999999999101e-01 1.23493798717072210e+01 2.97798351345060837e+03 2.99033289332231561e+03 -1.98440170374663103e+03 1.48532784432264475e+00
3.96874999999999090e-01 1.23105069422788507e+01 2.97802238624842903e+03 2.99033289319070809e+03 -1.98440170374656395e+03 1.48532784432264497e+00
3.99999999999999079e-01 1.22714190684959945e+01 2.97806147398841495e+03 2.99033289305691096e+03 -1.98440170374616764e+03 1.48532784432264431e+00
4.03124999999999067e-01 1.22321182283724550e+01 2.97810077469474891e+03 2.99033289292312156e+03 -1.98440170374677587e+03 1.48532784432264409e+00
4.06249999999999056e-01 1.21926064156791814e+01 2.97814028637336742e+03 2.99033289278904658e+03 -1.98440170375342541e+03 1.48532784432264520e+00
4.09374999999999045e-01 1.21528856305203430e+01 2.97818000701963456e+03 2.99033289265015492e+03 -1.98440170376277092e+03 1.48532784432264386e+00
4.12499999999999034e-01 1.21129578879870063e+01 2.97821993462428418e+03 2.99033289251227097e+03 -1.98440170375634534e+03 1.48532784432264453e+00
4.15624999999999023e-01 1.20728251991080811e+01 2.97826006717725249e+03 2.99033289237636063e+03 -1.98440170375375328e+03 1.48532784432264409e+00
4.18749999999999012e-01 1.20324895729182195e+01 2.97830040266928791e+03 2.99033289224220607e+03 -1.98440170375190428e+03 1.48532784432264431e+00
4.21874999999999001e-01 1.19919530149542428e+01 2.97834093909146941e+03 2.99033289210642351e+03 -1.98440170374369495e+03 1.48532784432264409e+00
4.24999999999998990e-01 1.19512175346898832e+01 2.97838167443297334e+03 2.99033289196766327e+03 -1.98440170373392175e+03 1.48532784432264497e+00
